# pres  Tmin  Tmax  qmin  qmax
1.011588500000000058e+05 2.848019781178961694e+02 2.892587237373892890e+02 3.268222790211439133e-03 5.186079069972038269e-03
1.008691666666666715e+05 2.845738007887168806e+02 2.889727937699688596e+02 3.207371104508638382e-03 5.153504665940999985e-03
1.005798833333333314e+05 2.843665753073186693e+02 2.886987138751507587e+02 3.136747051030397415e-03 5.131154786795377731e-03
1.002960666666666657e+05 2.841349486885559941e+02 2.884391147420718653e+02 3.088437952101230621e-03 5.114515312016010284e-03
1.000075666666666657e+05 2.839193115234375000e+02 2.881749863367316493e+02 3.031748346984386444e-03 5.109338555485010147e-03
9.972406666666666570e+04 2.840182004606598412e+02 2.879243923818596613e+02 3.000702708959579468e-03 5.116756074130535126e-03
9.943991666666667152e+04 2.839870161830035613e+02 2.876763222370059339e+02 2.983770100399851799e-03 5.222044419497251511e-03
9.915411666666666861e+04 2.838348694769941289e+02 2.874209577941185785e+02 2.961812773719429970e-03 5.217164754867553711e-03
9.887125000000000000e+04 2.836747154905492039e+02 2.871760974068400856e+02 2.999654272571206093e-03 5.228272173553705215e-03
9.858914999999999418e+04 2.834950336960719142e+02 2.869343130783490210e+02 2.980279969051480293e-03 5.228917114436626434e-03
9.830751666666666279e+04 2.833010078294390155e+02 2.866940754780557654e+02 2.953693503513932228e-03 5.198454950004816055e-03
9.802513333333333139e+04 2.831227169235017413e+02 2.864538601734865324e+02 2.965280786156654358e-03 5.207910668104887009e-03
9.774416666666667152e+04 2.829195227382318762e+02 2.862131482334837642e+02 2.925883047282695770e-03 5.218926351517438889e-03
9.746373333333333721e+04 2.827080289056244737e+02 2.859717556469269653e+02 2.866465365514159203e-03 5.222295876592397690e-03
9.718371666666665988e+04 2.824934217978950528e+02 2.857306795438193490e+02 2.920718397945165634e-03 5.212521180510520935e-03
9.690403333333334012e+04 2.822735581932685704e+02 2.854892804683095164e+02 2.855553291738033295e-03 5.192390643060207367e-03
9.662458333333332848e+04 2.820449422048773158e+02 2.852477974429218079e+02 2.824755152687430382e-03 5.181569606065750122e-03
9.634693333333333430e+04 2.818184007058727047e+02 2.850111792093248368e+02 2.835513791069388390e-03 5.182888824492692947e-03
9.606938333333333139e+04 2.815981180761215228e+02 2.847814570848586300e+02 2.787950448691844940e-03 5.166647024452686310e-03
9.579108333333332848e+04 2.814014668082391495e+02 2.845415212364758872e+02 2.786871045827865601e-03 5.144366994500160217e-03
9.551550000000000000e+04 2.811856044007746505e+02 2.843080049230448481e+02 2.751133637502789497e-03 5.147979129105806351e-03
9.523844999999999709e+04 2.809511990096619343e+02 2.840651452807582018e+02 2.767206868156790733e-03 5.145488772541284561e-03
9.496444999999999709e+04 2.807117848586127593e+02 2.838299439410876062e+02 2.773762680590152740e-03 5.168905947357416153e-03
9.468776666666666279e+04 2.805134254025694531e+02 2.835839192428041429e+02 2.756171161308884621e-03 5.133357830345630646e-03
9.441508333333332848e+04 2.802964546847699125e+02 2.833441462658713021e+02 2.778613241389393806e-03 5.098440218716859818e-03
9.414130000000000291e+04 2.800838255168292221e+02 2.831063740382259084e+02 2.747853519394993782e-03 5.110997706651687622e-03
9.386833333333332848e+04 2.798574962147322367e+02 2.828678259846938658e+02 2.767660655081272125e-03 5.100887268781661987e-03
9.359423333333333721e+04 2.796264573048534317e+02 2.826367628812674866e+02 2.749764127656817436e-03 5.038877017796039581e-03
9.332269999999999709e+04 2.794518171553197021e+02 2.824036908943140247e+02 2.740578493103384972e-03 4.980068653821945190e-03
9.305168333333333430e+04 2.792497323295709748e+02 2.821693289814714944e+02 2.758066868409514427e-03 4.938783124089241028e-03
9.278111666666666861e+04 2.790217313477162975e+02 2.819360068813253406e+02 2.755926456302404404e-03 4.877000115811824799e-03
9.251089999999999418e+04 2.788407536286977688e+02 2.817032706430379676e+02 2.739592222496867180e-03 4.837630316615104675e-03
9.224101666666666279e+04 2.786277474275193526e+02 2.814644942778028280e+02 2.738410606980323792e-03 4.833353217691183090e-03
9.197338333333333139e+04 2.784107640073950165e+02 2.812171563652173631e+02 2.733794739469885826e-03 4.814001265913248062e-03
9.170468333333333430e+04 2.781736000676556273e+02 2.809859010750164430e+02 2.739592920988798141e-03 4.842047113925218582e-03
9.143601666666666279e+04 2.779738233425964040e+02 2.807458628644067176e+02 2.726531820371747017e-03 4.859718494117259979e-03
9.116816666666667152e+04 2.777500750882524017e+02 2.805053606447423817e+02 2.669822424650192261e-03 4.857264459133148193e-03
9.090200000000000000e+04 2.775284526270967262e+02 2.803075664157718165e+02 2.454434288665652275e-03 4.856275860220193863e-03
9.063558333333332848e+04 2.772989772516962717e+02 2.800991756257026850e+02 2.447410020977258682e-03 4.808960948139429092e-03
9.037041666666667152e+04 2.771160587499153394e+02 2.798906872941536790e+02 2.462220843881368637e-03 4.882459063082933426e-03
9.010394999999999709e+04 2.769015859047266872e+02 2.796659778002014605e+02 2.342584077268838882e-03 4.849219694733619690e-03
8.984064999999999418e+04 2.767152463631730370e+02 2.794366257222627041e+02 2.323288703337311745e-03 4.852228332310914993e-03
8.957698333333333721e+04 2.764552624004133463e+02 2.791921830978153594e+02 2.305343747138977051e-03 4.861547611653804779e-03
8.931226666666666279e+04 2.762172062932746712e+02 2.789659874575909271e+02 2.336558653041720390e-03 4.868822172284126282e-03
8.905039999999999418e+04 2.760210018947786352e+02 2.787197880964591832e+02 1.974940067157149315e-03 4.879044834524393082e-03
8.878839999999999418e+04 2.758250266707640890e+02 2.785049003115283313e+02 2.057439880445599556e-03 4.847274161875247955e-03
8.852655000000000291e+04 2.755922923395159501e+02 2.782480806166677212e+02 1.977947307750582695e-03 4.936837125569581985e-03
8.826563333333333139e+04 2.754149012370796754e+02 2.780389648632652211e+02 2.060617553070187569e-03 4.849635995924472809e-03
8.800516666666667152e+04 2.751425239744474425e+02 2.778249014919530850e+02 1.978155691176652908e-03 4.932390991598367691e-03
8.774518333333333430e+04 2.749673434489445754e+02 2.776066047244097490e+02 1.984252827242016792e-03 4.830185323953628540e-03
8.748553333333334012e+04 2.747235195062606294e+02 2.773635465765225376e+02 1.881778473034501076e-03 4.874112550169229507e-03
8.722626666666666279e+04 2.745898124666811668e+02 2.771179896687073096e+02 1.715088030323386192e-03 4.858346655964851379e-03
8.696810000000000582e+04 2.743762879942211725e+02 2.769125450734686638e+02 1.801564241759479046e-03 4.841058980673551559e-03
8.671208333333332848e+04 2.741728533613188006e+02 2.766798363211663627e+02 1.771207200363278389e-03 4.821525886654853821e-03
8.645400000000000000e+04 2.739831516252380084e+02 2.764188944851935048e+02 1.721549662761390209e-03 4.759508185088634491e-03
8.619681666666666570e+04 2.737802949485790691e+02 2.762240134903258308e+02 1.681656460277736187e-03 4.732425790280103683e-03
8.594169999999999709e+04 2.736188689202272144e+02 2.762366660425847158e+02 1.519682700745761395e-03 4.725479986518621445e-03
8.568506666666666570e+04 2.734464151109783074e+02 2.759847071108393948e+02 1.571219647303223610e-03 4.699833691120147705e-03
8.543085000000000582e+04 2.732610062981011652e+02 2.757598328672681873e+02 1.582252793014049530e-03 4.693233408033847809e-03
8.517680000000000291e+04 2.730759298494672862e+02 2.756412776524884976e+02 1.453069853596389294e-03 4.639834631234407425e-03
8.492306666666666570e+04 2.728763755051708699e+02 2.753771314668460946e+02 1.475868979468941689e-03 4.620404914021492004e-03
8.466961666666666861e+04 2.727105161629596637e+02 2.750456257206467399e+02 1.500518643297255039e-03 4.597138147801160812e-03
8.441748333333333721e+04 2.725072600238530640e+02 2.749643879515027720e+02 1.460698782466351986e-03 4.566762596368789673e-03
8.416521666666665988e+04 2.723170920551111749e+02 2.748254066353971439e+02 1.344297197647392750e-03 4.504696000367403030e-03
8.391318333333333430e+04 2.721636568413532018e+02 2.744428662274010549e+02 1.343858893960714340e-03 4.509009420871734619e-03
8.366255000000000291e+04 2.719642525841825318e+02 2.742761583543920665e+02 1.384424394927918911e-03 4.450248088687658310e-03
8.341228333333334012e+04 2.717983227400929422e+02 2.741507560702622754e+02 1.315237721428275108e-03 4.409049637615680695e-03
8.316228333333334012e+04 2.716331023217554161e+02 2.738372445440751903e+02 1.275964197702705860e-03 4.393504932522773743e-03
8.291269999999999709e+04 2.714056668567579322e+02 2.738274845664586223e+02 1.275939866900444031e-03 4.355015233159065247e-03
8.266475000000000000e+04 2.712731812012795558e+02 2.736557066997402785e+02 1.214619143866002560e-03 4.340244457125663757e-03
8.241655000000000291e+04 2.710589537397351023e+02 2.734847788262132440e+02 1.177916885353624821e-03 4.295472055673599243e-03
8.216828333333334012e+04 2.708593669719759305e+02 2.731955271005505210e+02 1.300878706388175488e-03 4.255525302141904831e-03
8.192110000000000582e+04 2.706794786757644147e+02 2.730348430158196606e+02 1.132188364863395691e-03 4.248958546668291092e-03
8.167544999999999709e+04 2.704884726250242579e+02 2.727675218738789340e+02 1.198079087771475315e-03 4.212323576211929321e-03
8.142861666666666861e+04 2.702990534972561818e+02 2.725160276595472055e+02 1.191541086882352829e-03 4.173097200691699982e-03
8.118401666666666279e+04 2.701133552980011814e+02 2.723459895472449830e+02 1.162899658083915710e-03 4.144440405070781708e-03
8.093843333333333430e+04 2.699568545523246144e+02 2.722386986676476681e+02 1.043939264491200447e-03 4.121934063732624054e-03
8.069494999999999709e+04 2.697395836212944005e+02 2.719353560629126605e+02 1.162166357971727848e-03 4.075243137776851654e-03
8.045076666666666279e+04 2.695146596962854346e+02 2.718119481037794003e+02 9.769853204488754272e-04 4.042858257889747620e-03
8.020751666666666279e+04 2.693518486099302436e+02 2.715469916793034599e+02 9.403636795468628407e-04 3.994516562670469284e-03
7.996533333333332848e+04 2.691899555809224580e+02 2.713809509456043543e+02 1.070765079930424690e-03 3.977946471422910690e-03
7.972296666666665988e+04 2.689727645427529978e+02 2.713008489484438996e+02 1.032281201332807541e-03 3.988620359450578690e-03
7.948143333333333430e+04 2.687912604144858619e+02 2.710301368603821857e+02 1.036761561408638954e-03 3.931640647351741791e-03
7.924083333333332848e+04 2.686069076190746614e+02 2.708591495493847674e+02 9.918138384819030762e-04 3.923700656741857529e-03
7.900061666666666861e+04 2.684170737615350504e+02 2.706424130189806760e+02 1.072836690582334995e-03 3.876826725900173187e-03
7.876068333333333430e+04 2.682370908173725184e+02 2.705089651203171570e+02 7.578784716315567493e-04 3.868775907903909683e-03
7.852110000000000582e+04 2.680714492059943836e+02 2.703470076622481315e+02 7.130985613912343979e-04 3.801708109676837921e-03
7.828189999999999418e+04 2.678746645648849380e+02 2.699893704748919845e+02 9.160825284197926521e-04 3.806560300290584564e-03
7.804394999999999709e+04 2.676750797162947038e+02 2.699440975200168964e+02 6.773449713364243507e-04 3.760694293305277824e-03
7.780646666666665988e+04 2.674852906028880852e+02 2.697728738478131731e+02 7.801353931427001953e-04 3.748143091797828674e-03
7.757006666666666570e+04 2.673125504637644667e+02 2.694935095049808638e+02 6.983307539485394955e-04 3.712763078510761261e-03
7.733219999999999709e+04 2.670917849117660694e+02 2.693986511831113830e+02 7.350717787630856037e-04 3.671344136819243431e-03
7.709685000000000582e+04 2.668990034989500941e+02 2.691047844412117342e+02 7.852722192183136940e-04 3.619475988671183586e-03
7.686131666666666570e+04 2.666885194810126904e+02 2.688984530718939254e+02 7.051653228700160980e-04 3.612764645367860794e-03
7.662648333333333721e+04 2.665250813097774767e+02 2.688133207252328702e+02 6.799057009629905224e-04 3.608804661780595779e-03
7.639181666666666570e+04 2.663454976166332244e+02 2.687503467331704314e+02 6.654265453107655048e-04 3.597763366997241974e-03
7.615923333333333721e+04 2.661073797572253739e+02 2.684509208589905143e+02 7.109622820280492306e-04 3.511983435600996017e-03
7.592446666666665988e+04 2.659358809865337889e+02 2.684091065287362881e+02 6.917758728377521038e-04 3.530477406457066536e-03
7.569194999999999709e+04 2.657754777963522770e+02 2.683544073975402853e+02 6.691679009236395359e-04 3.526005195453763008e-03
7.546051666666666279e+04 2.655832969513202784e+02 2.680955121678156843e+02 6.573008722625672817e-04 3.469281829893589020e-03
7.522918333333333430e+04 2.654023862971393442e+02 2.679014277701111837e+02 6.038541905581951141e-04 3.426840063184499741e-03
7.499811666666666861e+04 2.651760515572058807e+02 2.677826391042846694e+02 6.152132991701364517e-04 3.380476031452417374e-03
7.476746666666665988e+04 2.649916010528719994e+02 2.676706305214015629e+02 5.772417061962187290e-04 3.385085146874189377e-03
7.453736666666666861e+04 2.648164816413549829e+02 2.675739453051963892e+02 4.932557349093258381e-04 3.368963021785020828e-03
7.430780000000000291e+04 2.646150766301988710e+02 2.674875611829858144e+02 5.604060715995728970e-04 3.357843495905399323e-03
7.407875000000000000e+04 2.644236652395822489e+02 2.670292600901827313e+02 5.951484199613332748e-04 3.244311315938830376e-03
7.385013333333333139e+04 2.642324782335832083e+02 2.668463786662024404e+02 5.024207639507949352e-04 3.206192050129175186e-03
7.362189999999999418e+04 2.640270327698647179e+02 2.668267400493385253e+02 4.691887297667562962e-04 3.211429109796881676e-03
7.339486666666666861e+04 2.638565265530690453e+02 2.668581768662991749e+02 4.682122380472719669e-04 3.230372443795204163e-03
7.316800000000000000e+04 2.636208696442259907e+02 2.665152391513188945e+02 4.226217570248991251e-04 3.150190459564328194e-03
7.294155000000000291e+04 2.634740371362240694e+02 2.663601882567954817e+02 3.213600430171936750e-04 3.119738772511482239e-03
7.271588333333333139e+04 2.632810381550287957e+02 2.661862214534781970e+02 4.416526062414050102e-04 3.084539435803890228e-03
7.249058333333332848e+04 2.630657317789506351e+02 2.660273452387815496e+02 3.038792638108134270e-04 3.054094035178422928e-03
7.226598333333333721e+04 2.628740563047295495e+02 2.659025008927431486e+02 1.137778162956237793e-04 3.030766267329454422e-03
7.204185000000000582e+04 2.626844297932653376e+02 2.656282778905243163e+02 3.923785989172756672e-04 2.972431015223264694e-03
7.181735000000000582e+04 2.624947650957390124e+02 2.655409096590223612e+02 3.369481710251420736e-04 2.959003672003746033e-03
7.159546666666665988e+04 2.623000352552540448e+02 2.653746794539904386e+02 1.511978625785559416e-04 2.928767818957567215e-03
7.137308333333332848e+04 2.620652946046887450e+02 2.652216320011907555e+02 2.379291690886020660e-04 2.899845363572239876e-03
7.115023333333333721e+04 2.619132574681540859e+02 2.650373863795560965e+02 1.342509640380740166e-04 2.863834146410226822e-03
7.092791666666667152e+04 2.617010284501656656e+02 2.650700910795707728e+02 1.240057317772880197e-04 2.880362793803215027e-03
7.070730000000000291e+04 2.614276710165584063e+02 2.647795189966848284e+02 3.594901136239059269e-05 2.818054053932428360e-03
7.048705000000000291e+04 2.612741392990911891e+02 2.645002345319689425e+02 7.592361362185329199e-05 2.761425683274865150e-03
7.026706666666666570e+04 2.611321692585991627e+02 2.647099649389216438e+02 4.081412043888121843e-05 2.819940913468599319e-03
7.004751666666666279e+04 2.609395205588761542e+02 2.646472994802617791e+02 1.506694534327834845e-04 2.813784172758460045e-03
6.982850000000000000e+04 2.607260989761947485e+02 2.640480265822462798e+02 9.951901120075490326e-06 2.681426703929901123e-03
6.961081666666666570e+04 2.605429522112032146e+02 2.638927766704352393e+02 7.826247019693255424e-05 2.653155243024230003e-03
6.939336666666666861e+04 2.603504361318023257e+02 2.638419360616317704e+02 9.951901120075490326e-06 2.648881869390606880e-03
6.917561666666666861e+04 2.601658886186999098e+02 2.635705556616762806e+02 9.951901120075490326e-06 2.596293576061725616e-03
6.895848333333333721e+04 2.599370784789447271e+02 2.636079014673709366e+02 9.951901120075490326e-06 2.612812677398324013e-03
6.874258333333332848e+04 2.597671691343692260e+02 2.634640739685930839e+02 9.951901120075490326e-06 2.587809925898909569e-03
6.852646666666665988e+04 2.595815593865368101e+02 2.634126203964198680e+02 9.951901120075490326e-06 2.582731656730175018e-03
6.831126666666666279e+04 2.593743857539869850e+02 2.629065668247923213e+02 9.951901120075490326e-06 2.479868941009044647e-03
6.809643333333333430e+04 2.591869683946526948e+02 2.627132489787261989e+02 9.951901120075490326e-06 2.443020697683095932e-03
6.788186666666666861e+04 2.589809254407718413e+02 2.624580790331162348e+02 9.951901120075490326e-06 2.395552350208163261e-03
6.766914999999999418e+04 2.587611917445487961e+02 2.623981894552238714e+02 9.951901120075490326e-06 2.390313893556594849e-03
6.745508333333332848e+04 2.585345147823911702e+02 2.621762982016059027e+02 9.951901120075490326e-06 2.351638162508606911e-03
6.724213333333333139e+04 2.583714472780004598e+02 2.619109952002790465e+02 9.951901120075490326e-06 2.301911124959588051e-03
6.703083333333332848e+04 2.581736956301256782e+02 2.616883939948247075e+02 9.951901120075490326e-06 2.262417459860444069e-03
6.681955000000000291e+04 2.579879109625974820e+02 2.615725899709270834e+02 9.951901120075490326e-06 2.245971467345952988e-03
6.660821666666665988e+04 2.577490675892894956e+02 2.615456058772747951e+02 9.951901120075490326e-06 2.248967532068490982e-03
6.639711666666666861e+04 2.575820024819420837e+02 2.612307419513902005e+02 9.951901120075490326e-06 2.191717969253659248e-03
6.618693333333333430e+04 2.573493231768338205e+02 2.613952414057512215e+02 9.951901120075490326e-06 2.232120605185627937e-03
6.597786666666666861e+04 2.571696295107319088e+02 2.611895196532817636e+02 9.951901120075490326e-06 2.197214402258396149e-03
6.576850000000000000e+04 2.569552017964406332e+02 2.608829837788670716e+02 9.951901120075490326e-06 2.142262645065784454e-03
6.555961666666666861e+04 2.567585670469738375e+02 2.606997975595497223e+02 9.951901120075490326e-06 2.111794194206595421e-03
6.535108333333333576e+04 2.565639488889817699e+02 2.606422633963325666e+02 9.951901120075490326e-06 2.107854234054684639e-03
6.514311666666666861e+04 2.563565732132050812e+02 2.603174902730550571e+02 9.951901120075490326e-06 2.050757175311446190e-03
6.493640000000000146e+04 2.561547527448072969e+02 2.606310371749624437e+02 9.951901120075490326e-06 2.119492040947079659e-03
6.472973333333332994e+04 2.559676939297793581e+02 2.601807866113383625e+02 9.951901120075490326e-06 2.036768244579434395e-03
6.452340000000000146e+04 2.557674961574118413e+02 2.595485599994490826e+02 9.951901120075490326e-06 1.924567623063921928e-03
6.431781666666666570e+04 2.555616484695533188e+02 2.594858735349598078e+02 9.951901120075490326e-06 1.920082140713930130e-03
6.411263333333333139e+04 2.553787432050424115e+02 2.591309570056700977e+02 9.951901120075490326e-06 1.862195087596774101e-03
6.390758333333333576e+04 2.550890257236775369e+02 2.590959018202827906e+02 9.951901120075490326e-06 1.861869357526302338e-03
6.370430000000000291e+04 2.549494514880030636e+02 2.588179387081065101e+02 9.951901120075490326e-06 1.816085772588849068e-03
6.350005000000000291e+04 2.547359660946682425e+02 2.586878794113806634e+02 9.951901120075490326e-06 1.799330115318298340e-03
6.329706666666666570e+04 2.545678293227117308e+02 2.584399785176105979e+02 9.951901120075490326e-06 1.762935658916831017e-03
6.309538333333333139e+04 2.543797222546652108e+02 2.581064955949479440e+02 9.951901120075490326e-06 1.710621174424886703e-03
6.289263333333333139e+04 2.541924323979943381e+02 2.581229081610144931e+02 9.951901120075490326e-06 1.718780258670449257e-03
6.269056666666666570e+04 2.539659225091956216e+02 2.578758372857998324e+02 9.951901120075490326e-06 1.679010223597288132e-03
